# Time (s), Altitude AGL (m), X (m), Y (m), Z (m), Vx (m/s), Vy (m/s), Vz (m/s), Speed - Velocity Magnitude (m/s), Attitude Angle (°), Path Angle (°), Angle of Attack (°)
0.000000,0.000000,0.000000,0.000000,1471.466078,0.000000,0.000000,0.000000,0.000000,85.000000,0.000000,89.011977
0.009766,0.003431,-0.000000,0.000300,1471.469509,0.000000,0.030737,0.351331,0.352673,85.000000,85.000000,80.810959
0.019532,0.010294,-0.000000,0.000901,1471.476372,0.000000,0.061483,0.702749,0.705433,85.000000,85.000000,72.968790
0.039063,0.030885,0.000000,0.002702,1471.496963,0.000000,0.122988,1.405761,1.411131,85.000000,85.000000,59.225702
0.058595,0.065211,0.000000,0.005705,1471.531289,-0.000000,0.184524,2.109122,2.117179,85.000000,85.000000,48.496494
0.078126,0.113277,0.000000,0.009910,1471.579355,0.000000,0.246091,2.812831,2.823575,85.000000,85.000000,40.416998
0.273441,1.351125,-0.000000,0.118208,1472.817204,-0.000000,0.863388,9.868572,9.906268,85.000000,85.000000,13.786987
0.468756,3.970294,0.000000,0.347356,1475.436372,0.000000,1.483525,16.956766,17.021538,85.000000,85.000000,8.147317
0.664071,7.976892,0.000000,0.697888,1479.442970,-0.000000,2.106317,24.075319,24.167282,85.000000,85.000000,5.768267
0.859386,13.376640,-0.000000,1.170304,1484.842718,-0.000000,2.731578,31.222077,31.341340,85.000000,85.000000,4.461640
0.908700,14.960912,0.000000,1.308910,1486.426990,0.000000,2.889814,33.030726,33.156898,85.000000,85.000000,4.204211
0.909981,15.003274,0.000000,1.312618,1486.469352,0.000140,2.894985,33.077628,33.204072,84.999993,84.998164,4.197986
0.911262,15.045696,0.000001,1.316332,1486.511775,0.000280,2.900157,33.124530,33.251247,84.999980,84.996334,4.191745
0.913823,15.130661,0.000002,1.323774,1486.596739,0.000560,2.910499,33.218337,33.345598,84.999940,84.992689,4.179248
0.916385,15.215866,0.000003,1.331242,1486.681944,0.000841,2.920842,33.312148,33.439954,84.999873,84.989065,4.166685
0.918946,15.301311,0.000006,1.338736,1486.767389,0.001121,2.931184,33.405963,33.534314,84.999779,84.985462,4.154055
0.944560,16.168982,0.000070,1.415140,1487.635060,0.003860,3.034628,34.344359,34.478166,84.997286,84.950521,4.024044
0.970174,17.060694,0.000200,1.494194,1488.526772,0.006271,3.138150,35.283184,35.422466,84.991745,84.917374,3.887113
0.995787,17.976459,0.000385,1.575901,1489.442537,0.008057,3.241821,36.222427,36.367206,84.982756,84.885773,3.743088
1.021401,18.916286,0.000605,1.660267,1490.382364,0.008920,3.345716,37.162078,37.312383,84.969810,84.855490,3.591884
1.084362,21.328806,0.001099,1.878990,1492.794884,0.005217,3.602559,39.473482,39.637536,84.917206,84.785324,3.189972
1.147324,23.886925,0.001014,2.113975,1495.353003,-0.010314,3.862515,41.787049,41.965183,84.826264,84.718950,2.747568
1.210285,26.590769,-0.000535,2.365461,1498.056847,-0.041910,4.126967,44.102496,44.295189,84.685620,84.653742,2.271311
1.273246,29.440446,-0.004681,2.633777,1500.906524,-0.093415,4.397352,46.419455,46.627366,84.486186,84.587261,1.772666
1.336207,32.436038,-0.012782,2.919341,1503.902116,-0.168056,4.675089,48.737485,48.961486,84.224323,84.517213,1.270366
1.399168,35.577596,-0.026376,3.222658,1507.043675,-0.268214,4.961507,51.056076,51.297284,83.904127,84.441508,0.800553
1.462129,38.865141,-0.047117,3.544313,1510.331219,-0.395209,5.257758,53.374735,53.634528,83.537987,84.358375,0.474482
1.525091,42.298660,-0.076703,3.884953,1513.764738,-0.549110,5.564726,55.692980,55.972991,83.145359,84.266536,0.541135
1.562834,44.426914,-0.099375,4.098546,1515.892992,-0.653784,5.754124,57.082339,57.375350,82.907176,84.207020,0.712547
1.600577,46.607601,-0.126164,4.319364,1518.073679,-0.767155,5.947629,58.471368,58.778088,82.673666,84.144145,0.897363
1.638320,48.840707,-0.157385,4.547563,1520.306786,-0.888503,6.145231,59.860050,60.181217,82.450353,84.078033,1.068434
1.676064,51.126221,-0.193323,4.783296,1522.592299,-1.016937,6.346866,61.248393,61.584758,82.242474,84.008925,1.213465
1.713807,53.464130,-0.234226,5.026714,1524.930208,-1.151404,6.552409,62.636440,62.988756,82.054765,83.937175,1.325673
1.754442,56.039750,-0.284047,5.297541,1527.505828,-1.301544,6.777859,64.130597,64.500906,81.879822,83.857505,1.405096
1.795078,58.676083,-0.340056,5.577612,1530.142161,-1.455643,7.007330,65.624621,66.013729,81.736811,83.776004,1.438781
1.835713,61.373126,-0.402378,5.867083,1532.839204,-1.611945,7.240458,67.118663,67.527310,81.628241,83.693462,1.425721
1.876349,64.130883,-0.471066,6.166094,1535.596961,-1.768638,7.476826,68.612901,69.041735,81.555102,83.610726,1.366727
1.916984,66.949367,-0.546098,6.474769,1538.415445,-1.923912,7.715974,70.107524,70.557088,81.516798,83.528667,1.264412
1.957620,69.828596,-0.627381,6.793210,1541.294674,-2.076029,7.957419,71.602704,72.073419,81.511176,83.448128,1.123189
1.998255,72.768597,-0.714754,7.121500,1544.234675,-2.223387,8.200669,73.098606,73.590765,81.534647,83.369889,0.949251
2.038891,75.769401,-0.807995,7.459704,1547.235479,-2.364595,8.445247,74.595357,75.109126,81.582412,83.294625,0.750609
2.079526,78.831045,-0.906829,7.807865,1550.297124,-2.498533,8.690708,76.093052,76.628478,81.648763,83.222875,0.537512
2.120162,81.953569,-1.010945,8.166012,1553.419648,-2.624411,8.936663,77.591740,78.148766,81.727459,83.155015,0.325321
2.160797,85.137014,-1.120004,8.534159,1556.603092,-2.741813,9.182794,79.091428,79.669914,81.812120,83.091240,0.160888
2.201433,88.381418,-1.233660,8.912306,1559.847497,-2.850729,9.428875,80.592086,81.191838,81.896583,83.031565,0.206751
2.242068,91.686822,-1.351577,9.300450,1563.152900,-2.951561,9.674778,82.093640,82.714441,81.975199,82.975827,0.365789
2.282703,95.053258,-1.473439,9.698582,1566.519336,-3.045119,9.920484,83.595996,84.237636,82.043009,82.923699,0.514800
2.323339,98.480757,-1.598975,10.106696,1569.946835,-3.132577,10.166083,85.099042,85.761351,82.095796,82.874721,0.630925
2.363974,101.969346,-1.727965,10.524791,1573.435424,-3.215426,10.411768,86.602647,87.285522,82.130074,82.828324,0.705881
2.404610,105.519043,-1.860257,10.952875,1576.985121,-3.295385,10.657817,88.106671,88.810102,82.143034,82.783874,0.736005
2.445245,109.129863,-1.995771,11.390972,1580.595941,-3.374306,10.904583,89.610973,90.335056,82.132573,82.740709,0.720991
2.485881,112.801813,-2.134502,11.839117,1584.267892,-3.454062,11.152460,91.115397,91.860348,82.097416,82.698177,0.663691
2.526516,116.534897,-2.276521,12.297364,1588.000976,-3.536433,11.401859,92.619797,93.385949,82.037349,82.655676,0.570090
2.546606,118.403092,-2.347990,12.527671,1589.869170,-3.578614,11.525847,93.363508,94.140301,81.998745,82.634511,0.513171
2.566696,120.286227,-2.420317,12.760474,1591.752305,-3.621979,11.650354,94.107159,94.894714,81.954658,82.613171,0.451128
2.586786,122.184301,-2.493529,12.995784,1593.650379,-3.666665,11.775419,94.850731,95.649183,81.905483,82.591610,0.385801
2.606876,124.097313,-2.567653,13.233612,1595.563391,-3.712787,11.901080,95.594212,96.403703,81.851735,82.569791,0.319631
2.629688,126.287681,-2.652966,13.506740,1597.753759,-3.767005,12.044535,96.438318,97.260528,81.785954,82.544665,0.248127
2.652501,128.497304,-2.739538,13.783150,1599.963382,-3.823263,12.188839,97.282268,98.117403,81.716128,82.519140,0.189700
2.675313,130.726177,-2.827418,14.062862,1602.192255,-3.881593,12.334022,98.126046,98.974319,81.643446,82.493201,0.160933
2.698126,132.974297,-2.916651,14.345896,1604.440375,-3.941975,12.480103,98.969643,99.831270,81.569198,82.466848,0.174199
2.729760,136.123642,-3.042719,14.743920,1607.589721,-4.028966,12.684174,100.139164,101.019667,81.466149,82.429651,0.237092
2.761395,139.309979,-3.171595,15.148427,1610.776057,-4.119419,12.889971,101.308324,102.208109,81.366351,82.391775,0.310557
2.793029,142.533296,-3.303381,15.559470,1613.999375,-4.212830,13.097440,102.477145,103.396597,81.273258,82.353350,0.374260
2.824664,145.793584,-3.438160,15.977103,1617.259662,-4.308550,13.306498,103.645668,104.585138,81.190002,82.314544,0.420067
2.856298,149.090832,-3.575994,16.401372,1620.556910,-4.405830,13.517021,104.813947,105.773743,81.118986,82.275559,0.444230
2.874685,151.024254,-3.657526,16.651035,1622.490332,-4.462765,13.639999,105.492892,106.464623,81.084039,82.252902,0.447686
2.893071,152.970158,-3.740105,16.902963,1624.436236,-4.519784,13.763392,106.171789,107.155533,81.053990,82.230302,0.443306
2.911458,154.928544,-3.823733,17.157163,1626.394623,-4.576724,13.887167,106.850653,107.846473,81.028911,82.207803,0.431282
2.929845,156.899413,-3.908405,17.413643,1628.365491,-4.633421,14.011289,107.529496,108.537447,81.008782,82.185447,0.411951
2.948231,158.882763,-3.994116,17.672407,1630.348841,-4.689722,14.135725,108.208332,109.228455,80.993480,82.163276,0.385798
2.966618,160.878595,-4.080858,17.933462,1632.344673,-4.745481,14.260441,108.887174,109.919500,80.982789,82.141329,0.353451
2.985005,162.886908,-4.168619,18.196812,1634.352986,-4.800564,14.385405,109.566032,110.610581,80.976406,82.119639,0.315659
3.014804,166.168263,-4.312981,18.628507,1637.634341,-4.888105,14.588382,110.666304,111.730682,80.974237,82.085113,0.245222
3.044603,169.482407,-4.459916,19.066256,1640.948485,-4.973162,14.791814,111.766674,112.850872,80.980430,82.051449,0.167196
3.074402,172.829342,-4.609345,19.510074,1644.295420,-5.055469,14.995612,112.867156,113.971142,80.992696,82.018711,0.086809
3.104201,176.209072,-4.761184,19.959969,1647.675150,-5.134913,15.199697,113.967756,115.091474,81.008554,81.986932,0.026440
3.134000,179.621601,-4.915348,20.415949,1651.087679,-5.211541,15.404032,115.068455,116.211849,81.025492,81.956094,0.079204
3.150609,181.537873,-5.002253,20.672742,1653.003951,-5.253097,15.518025,115.681988,116.836323,81.034478,81.939297,0.116142
3.167218,183.464335,-5.089842,20.931428,1654.930414,-5.293893,15.632093,116.295540,117.460803,81.042623,81.922763,0.150243
3.183827,185.400989,-5.178103,21.192010,1656.867067,-5.333996,15.746244,116.909106,118.085286,81.049554,81.906474,0.180569
3.200436,187.347833,-5.267024,21.454489,1658.813911,-5.373484,15.860485,117.522679,118.709769,81.054925,81.890410,0.206493
3.220851,189.754754,-5.377213,21.779715,1661.220832,-5.421308,16.001044,118.276847,119.477348,81.058937,81.870940,0.231909
3.241266,192.177071,-5.488372,22.107812,1663.643149,-5.468517,16.141782,119.030996,120.244916,81.059584,81.851731,0.249442
3.261681,194.614784,-5.600489,22.438785,1666.080862,-5.515304,16.282726,119.785110,121.012471,81.056442,81.832736,0.258841
3.282096,197.067892,-5.713560,22.772637,1668.533970,-5.561867,16.423911,120.539171,121.780011,81.049180,81.813903,0.260179
3.302511,199.536393,-5.827580,23.109374,1671.002471,-5.608409,16.565370,121.293162,122.547529,81.037588,81.795185,0.253751
3.322926,202.020286,-5.942552,23.449002,1673.486364,-5.655124,16.707141,122.047065,123.315024,81.021569,81.776532,0.240117
3.343341,204.519569,-6.058481,23.791528,1675.985647,-5.702196,16.849258,122.800863,124.082491,81.001155,81.757901,0.220104
3.363756,207.034239,-6.175376,24.136959,1678.500318,-5.749792,16.991758,123.554539,124.849927,80.976503,81.739250,0.194824
3.381646,209.250544,-6.278617,24.442062,1680.716622,-5.792048,17.116974,124.214890,125.522418,80.951639,81.722861,0.169494
3.399536,211.478660,-6.382620,24.749409,1682.944738,-5.834899,17.242528,124.875125,126.194879,80.924012,81.706409,0.142523
3.417426,213.718588,-6.487394,25.059004,1685.184666,-5.878408,17.368439,125.535237,126.867309,80.893965,81.689879,0.115739
3.435316,215.970323,-6.592954,25.370855,1687.436402,-5.922620,17.494720,126.195221,127.539705,80.861900,81.673259,0.092024
3.453206,218.233865,-6.699311,25.684969,1689.699943,-5.967558,17.621385,126.855069,128.212064,80.828270,81.656540,0.076116
3.470515,220.435134,-6.802985,25.991042,1691.901212,-6.011733,17.744307,127.493355,128.862551,80.794708,81.640269,0.073262
3.487824,222.647450,-6.907430,26.299247,1694.113528,-6.056576,17.867600,128.131508,129.512998,80.760613,81.623905,0.082880
3.505133,224.870811,-7.012656,26.609588,1696.336889,-6.102055,17.991263,128.769528,130.163405,80.726465,81.607455,0.099631
3.522442,227.105214,-7.118675,26.922073,1698.571292,-6.148123,18.115295,129.407416,130.813770,80.692739,81.590925,0.118463
3.539751,229.350657,-7.225496,27.236708,1700.816735,-6.194715,18.239690,130.045173,131.464094,80.659891,81.574330,0.136420
3.557061,231.607138,-7.333127,27.553500,1703.073216,-6.241754,18.364439,130.682805,132.114373,80.628348,81.557684,0.151864
3.574370,233.874655,-7.441576,27.872454,1705.340733,-6.289153,18.489533,131.320314,132.764608,80.598492,81.541005,0.163842
3.591679,236.153205,-7.550848,28.193575,1707.619284,-6.336816,18.614957,131.957710,133.414801,80.570650,81.524311,0.171783
3.613462,239.036468,-7.689542,28.600801,1710.502547,-6.397016,18.773250,132.759725,134.233012,80.538869,81.503314,0.175519
3.635246,241.937200,-7.829549,29.011480,1713.403279,-6.457260,18.932008,133.561581,135.051150,80.511060,81.482371,0.172158
3.657030,244.855398,-7.970867,29.425623,1716.321476,-6.517340,19.091192,134.363296,135.869218,80.487411,81.461523,0.161848
3.678813,247.791059,-8.113490,29.843237,1719.257137,-6.577054,19.250766,135.164882,136.687216,80.467918,81.440813,0.145037
3.700597,250.744180,-8.257408,30.264331,1722.210258,-6.636223,19.410690,135.966353,137.505140,80.452397,81.420277,0.122349
3.721457,253.588384,-8.396423,30.670830,1725.054462,-6.692229,19.564126,136.733726,138.288296,80.440934,81.400806,0.095653
3.742316,256.448595,-8.536597,31.080532,1727.914673,-6.747486,19.717822,137.501010,139.071380,80.432358,81.381548,0.063757
3.763176,259.324809,-8.677916,31.493442,1730.790887,-6.801920,19.871752,138.268212,139.854392,80.426137,81.362517,0.016997
3.784035,262.217027,-8.820362,31.909566,1733.683105,-6.855490,20.025896,139.035332,140.637327,80.421669,81.343725,0.000000
3.804895,265.125245,-8.963915,32.328907,1736.591323,-6.908192,20.180239,139.802369,141.420181,80.418303,81.325173,-0.000000
3.826104,268.098559,-9.110991,32.758572,1739.564637,-6.960917,20.337361,140.582163,142.216058,80.415322,81.306552,0.000000
3.847313,271.088411,-9.259176,33.191572,1742.554489,-7.012844,20.494677,141.361860,143.011843,80.412098,81.288162,0.027671
3.868522,274.094798,-9.408454,33.627910,1745.560876,-7.064071,20.652190,142.141454,143.807535,80.407973,81.269985,0.057490
3.889730,277.117718,-9.558813,34.067591,1748.583796,-7.114723,20.809909,142.920933,144.603128,80.402352,81.251997,0.075662
3.910939,280.157169,-9.710241,34.510619,1751.623247,-7.164947,20.967850,143.700281,145.398617,80.394723,81.234171,0.086760
3.930875,283.029214,-9.853547,34.930106,1754.495292,-7.211905,21.116530,144.432712,146.146254,80.385355,81.217534,0.091525
3.950810,285.915859,-9.997787,35.352560,1757.381937,-7.258760,21.265442,145.165004,146.893795,80.373612,81.200986,0.091121
3.970746,288.817101,-10.142962,35.777984,1760.283179,-7.305644,21.414610,145.897144,147.641236,80.359361,81.184500,0.085966
3.990681,291.732937,-10.289072,36.206386,1763.199015,-7.352682,21.564055,146.629121,148.388576,80.342573,81.168051,0.076558
4.010617,294.663364,-10.436123,36.637769,1766.129442,-7.399984,21.713799,147.360923,149.135812,80.323333,81.151616,0.063485
4.037191,298.592261,-10.633612,37.217445,1770.058339,-7.463605,21.913910,148.336112,150.131698,80.294216,81.129698,0.041429
4.063765,302.547068,-10.832803,37.802446,1774.013146,-7.528016,22.114635,149.310950,151.127389,80.261802,81.107733,0.015436
4.090338,306.527775,-11.033716,38.392790,1777.993853,-7.593293,22.316011,150.285419,152.122877,80.227026,81.085702,0.000000
4.116912,310.534372,-11.236375,38.988494,1782.000450,-7.659424,22.518064,151.259513,153.118158,80.191053,81.063596,0.020860
4.143486,314.566850,-11.440803,39.589577,1786.032928,-7.726318,22.720801,152.233224,154.113222,80.155087,81.041426,0.041365
4.170060,318.625198,-11.647016,40.196056,1790.091276,-7.793811,22.924217,153.206558,155.108068,80.120267,81.019213,0.055284
4.178968,319.991444,-11.716546,40.400574,1791.457523,-7.816534,22.992556,153.532762,155.441515,80.109036,81.011763,0.058437
4.187876,321.360597,-11.786278,40.605700,1792.826675,-7.839290,23.060968,153.858924,155.774937,80.098083,81.004314,0.060824
4.196784,322.732654,-11.856214,40.811437,1794.198732,-7.862070,23.129451,154.185045,156.108334,80.087433,80.996867,0.062414
4.205693,324.107617,-11.926352,41.017784,1795.573695,-7.884865,23.198005,154.511128,156.441705,80.077111,80.989423,0.063192
4.214601,325.485484,-11.996694,41.224742,1796.951562,-7.907664,23.266628,154.837171,156.775051,80.067140,80.981984,0.063141
4.230505,327.952671,-12.122782,41.595754,1799.418750,-7.948349,23.389310,155.419175,157.370124,80.050260,80.968723,0.060877
4.246409,330.429114,-12.249517,41.968719,1801.895193,-7.988959,23.512198,156.001059,157.965115,80.034618,80.955493,0.055806
4.262313,332.914811,-12.376897,42.343640,1804.380889,-8.029442,23.635280,156.582828,158.560022,80.020243,80.942305,0.047672
4.278217,335.409759,-12.504920,42.720520,1806.875837,-8.069747,23.758547,157.164484,159.154844,80.007120,80.929167,0.035625
4.294122,337.913957,-12.633582,43.099361,1809.380035,-8.109832,23.881987,157.746029,159.749580,79.995193,80.916088,0.014372
4.325001,342.802423,-12.885198,43.840519,1814.268501,-8.186900,24.122115,158.874829,160.904049,79.975071,80.890884,0.000000
4.355880,347.725739,-13.139176,44.589100,1819.191817,-8.262832,24.362797,160.003235,162.058185,79.958157,80.865962,-0.000000
4.386759,352.683893,-13.395481,45.345121,1824.149971,-8.337579,24.603983,161.131250,163.211982,79.943140,80.841336,0.000000
4.417638,357.676873,-13.654077,46.108596,1829.142951,-8.411237,24.845636,162.258865,164.365427,79.928542,80.817001,0.000000
4.448517,362.704666,-13.914933,46.879541,1834.170745,-8.484019,25.087745,163.386061,165.518514,79.912846,80.792930,0.000000
4.479396,367.767259,-14.178027,47.657970,1839.233338,-8.556216,25.330334,164.512812,166.671233,79.894895,80.769076,0.000000
4.491263,369.722164,-14.279730,47.959128,1841.188242,-8.583878,25.423699,164.945718,167.114144,79.887181,80.759954,0.000000
4.503130,371.682206,-14.381763,48.261395,1843.148284,-8.611523,25.517145,165.378552,167.557000,79.878959,80.750853,0.000000
4.514998,373.647384,-14.484123,48.564772,1845.113462,-8.639168,25.610674,165.811311,167.999800,79.870243,80.741770,0.000000
4.526865,375.617697,-14.586811,48.869259,1847.083775,-8.666830,25.704290,166.243994,168.442542,79.861018,80.732700,0.000000
4.538732,377.593145,-14.689828,49.174857,1849.059223,-8.694523,25.797996,166.676597,168.885226,79.851291,80.723641,-0.000000
4.559505,381.063355,-14.870943,49.712460,1852.529433,-8.743118,25.962247,167.433641,169.659967,79.833106,80.707803,0.000000
4.580278,384.549289,-15.053068,50.253479,1856.015367,-8.791916,26.126802,168.190430,170.434528,79.813585,80.691977,0.000000
4.601051,388.050940,-15.236210,50.797919,1859.517019,-8.840955,26.291678,168.946961,171.208908,79.792965,80.676155,0.000000
4.621824,391.568305,-15.420374,51.345787,1863.034383,-8.890253,26.456887,169.703223,171.983102,79.771541,80.660329,0.000000
4.642597,395.101376,-15.605564,51.897091,1866.567454,-8.939801,26.622440,170.459215,172.757108,79.749662,80.644497,-0.000000
4.670160,399.813622,-15.852884,52.633928,1871.279700,-9.005876,26.842650,171.461914,173.783836,79.720546,80.623484,0.000000
4.697723,404.553499,-16.102030,53.376843,1876.019578,-9.072212,27.063475,172.464137,174.810227,79.692110,80.602477,-0.000000
4.725287,409.320995,-16.353006,54.125853,1880.787073,-9.138641,27.284906,173.465882,175.836268,79.665010,80.581494,0.000000
4.752850,414.116095,-16.605813,54.880975,1885.582173,-9.204971,27.506915,174.467161,176.861958,79.639800,80.560565,0.000000
4.780413,418.938788,-16.860443,55.642223,1890.404866,-9.271014,27.729464,175.467986,177.887293,79.616710,80.539718,0.000000
4.807977,423.789061,-17.116889,56.409613,1895.255139,-9.336616,27.952515,176.468365,178.912267,79.595709,80.518980,-0.000000
4.823226,426.484225,-17.259537,56.836800,1897.950303,-9.372677,28.076111,177.021617,179.479157,79.584866,80.507562,0.000000
4.838474,429.187825,-17.402734,57.265872,1900.653903,-9.408557,28.199839,177.574735,180.045934,79.574478,80.496188,0.000000
